Temperature,N2O_ppm,W
1090.889,199.399,0.196116135
1115.404,198.546,0.196116135
1140.674,195.691,0.196116135
1165.757,193.661,0.196116135
1194.065,189.39,0.196116135
1218.948,183.123,0.196116135
1242.874,173.914,0.196116135
1266.412,161.527,0.196116135
1290.319,143.844,0.196116135
1314.028,123.1,0.196116135
1339.251,9.95E+01,0.196116135
1355.917,7.35E+01,0.196116135
1384.173,4.66E+01,0.196116135